X	Y
0	3.0000
1	1.0329
2	0.0000
3	4.0892
4	1.9875
5	0.1487
6	0.0188
7	5.1095
8	0.0376
9	10.2113
10	5.1721
11	6.1721
12	0.0563
13	5.2645
14	0.0000
15	4.3052
16	2.9249
17	1.5587
18	0.0000
19	4.5649
20	1.9374
21	0.6244
22	0.1033
23	1.7559
24	0.0000
25	3.6651
26	12.5931
27	3.6338
28	5.7371
29	5.6808
30	0.1408
31	0.9218
32	1.2003
33	0.9296
34	6.6275
35	1.0955
36	4.8310
37	1.0423
38	0.1784
39	2.9765
40	11.3130
41	1.3474
42	0.9343
43	4.3459
44	0.9311
45	3.4085
46	0.0000
47	4.9562
48	2.7746
49	2.6103
50	0.0000
51	5.5164
52	1.8372
53	1.5759
54	0.2535
55	5.1189
56	2.7371
57	2.8732
58	0.0000
59	5.7543
60	1.8122
61	1.8138
62	0.2911
63	6.2817
64	0.1002
65	6.0172
66	0.3099
67	16.1534
68	3.8513
69	6.6197
70	0.1095
71	2.3333
72	0.0000
73	7.5994
74	2.6213
75	16.7042
76	2.0000
77	2.0485
78	0.6103
79	6.6072
80	4.6244
81	2.2817
82	15.0751
83	5.3380
84	10.4225
85	8.7293
86	14.6729
87	4.5869
88	2.4789
89	4.2285
90	0.5634
91	4.5665
92	0.2879
93	11.6197
94	1.0297
95	4.6761
96	0.1502
97	15.2144
98	0.0000
99	9.5493
100	14.5915
101	8.4742
102	0.9577
103	8.6119
104	21.1862
105	17.8216
106	13.3412
107	7.1862
108	21.9437
109	3.5822
110	8.0657
111	3.6056
112	10.9280
113	4.0673
114	15.6103
115	4.4992
116	0.8185
117	6.2254
118	15.0454
119	4.2833
120	4.4413
121	7.8404
122	0.5728
123	17.8075
124	3.4930
125	22.5211
126	4.3662
127	18.7950
128	19.5978
129	19.6056
130	14.0344
131	22.8701
132	20.7606
133	16.0407
134	6.9358
135	22.6901
136	18.0642
137	22.1440
138	19.4319
139	21.9577
140	19.2191
141	23.3239
142	18.6667
143	20.6854
144	18.6761
145	20.7230
146	16.3709
147	23.3803
148	20.2316
149	23.3318
150	22.2347
151	25.4178
152	22.6698
153	24.0704
154	20.0610
155	28.7872
156	24.2676
157	23.3881
158	18.7418
159	37.4883
160	15.5008
161	25.5196
162	30.7606
163	21.2754
164	24.2300
165	24.0329
166	17.2598
167	25.0454
168	25.6338
169	30.0579
170	19.2019
171	35.6761
172	30.5383
173	35.5196
174	30.1831
175	34.2864
176	30.2754
177	37.2160
178	30.4429
179	34.2019
180	32.2817
181	35.6995
182	31.0000
183	35.5775
184	30.4397
185	34.3161
186	30.5822
187	34.2191
188	30.4710
189	34.6620
190	28.4867
191	35.9890
192	28.5023
193	36.0203
194	28.6072
195	36.3568
196	28.2269
197	35.7746
198	28.2394
199	35.8028
200	30.9390
201	36.0892
202	31.0000
203	34.8122
204	29.6808
205	34.8873
206	30.2895
207	34.9155
208	29.9531
209	34.2707
210	30.3146
211	33.9624
212	30.3271
213	35.0000
214	29.3443
215	36.3552
216	30.6901
217	35.0563
218	31.0235
219	35.0845
220	31.0329
221	35.4210
222	29.7371
223	37.4898
224	29.0516
225	33.8732
226	31.0000
227	36.9734
228	31.0000
229	36.1502
230	31.6401
231	34.4225
232	31.9108
233	36.5524
234	30.3662
235	36.1487
236	29.1080
237	33.8216
238	31.6275
239	35.9922
240	33.6244
241	34.7715
242	26.1659
243	34.7042
244	32.1455
245	35.4507
246	29.7700
247	30.2269
248	30.7167
249	31.6244
250	29.9124
251	34.5352
252	27.3380
253	28.3146
254	30.0000
255	29.6009
256	31.6025
257	29.4241
258	29.3662
259	28.0266
260	31.8138
261	32.0845
262	34.4100
263	37.1158
264	24.6291
265	19.1706
266	21.3349
267	23.5211
268	24.8059
269	30.5790
270	32.4225
271	36.0892
272	25.9797
273	29.5728
274	21.8560
275	31.7089
276	23.5211
277	33.5665
278	24.0845
279	25.6761
280	24.4382
281	28.7590
282	18.9718
283	29.6714
284	23.6667
285	32.8920
286	23.9233
287	29.2457
288	26.4930
289	23.1659
290	27.3693
291	29.0986
292	26.6291
293	24.8779
294	31.0000
295	23.3865
296	30.0000
297	28.1831
298	22.6009
299	25.8717
300	19.5915
301	23.0657
302	17.3083
303	27.9484
304	18.5243
305	30.3865
306	20.5211
307	24.3239
308	16.9640
309	28.8685
310	16.4554
311	24.8138
312	19.5117
313	27.3678
314	15.9828
315	27.4648
316	18.0329
317	32.4648
318	17.5117
319	24.9953
320	18.5008
321	25.5211
322	30.0235
323	26.0548
324	20.5070
325	23.5603
326	19.0203
327	25.0939
328	19.0000
329	23.7527
330	19.4507
331	23.8419
332	19.9609
333	24.2535
334	18.5681
335	26.1941
336	17.0516
337	26.8560
338	15.5290
339	28.4883
340	17.0642
341	26.8028
342	17.0704
343	16.4930
344	19.8451
345	24.2582
346	19.1268
347	10.6025
348	8.0094
349	22.4617
350	19.7387
351	24.8873
352	19.5931
353	26.1815
354	20.5540
355	23.2222
356	19.0000
357	26.0563
358	19.3975
359	26.6745
360	16.6197
361	21.8247
362	11.7042
363	21.1596
364	23.4554
365	16.0000
366	19.7183
367	26.7637
368	15.8482
369	26.2817
370	10.5243
371	20.1612
372	19.4930
373	24.6698
374	20.3412
375	16.8263
376	21.3537
377	17.6401
378	12.0563
379	20.4413
380	20.9468
381	7.9624
382	12.9671
383	18.1862
384	21.0094
385	25.0501
386	17.9797
387	19.8169
388	17.6072
389	19.9562
390	19.8310
391	27.5070
392	17.3865
393	28.3803
394	20.2332
395	16.5274
396	4.9577
397	14.3192
398	6.7887
399	16.2488
400	23.8779
401	24.7653
402	16.0000
403	28.6588
404	12.4836
405	20.2113
406	0.6354
407	12.1017
408	3.6150
409	15.3615
410	0.0000
411	27.0047
412	1.9343
413	25.2801
414	8.8028
415	26.4945
416	20.3020
417	27.6103
418	0.0000
419	20.5900
420	18.6573
421	10.5415
422	14.8873
423	26.6197
424	18.3083
425	17.3537
426	21.6667
427	18.6729
428	6.2739
429	27.0282
430	6.2520
431	20.7449
432	0.9718
433	19.3881
434	16.3005
435	11.5728
436	13.9171
437	21.0000
438	12.5962
439	12.3662
440	13.9515
441	15.4930
442	1.3834
443	14.7058
444	6.4085
445	13.9280
446	0.6980
447	19.8967
448	6.2880
449	15.7293
450	1.7746
451	16.5290
452	15.5618
453	14.0892
454	4.9218
455	25.7120
456	23.1315
457	18.2848
458	10.3177
459	27.1408
460	1.6808
461	13.5430
462	6.9859
463	19.5509
464	20.9045
465	13.0986
466	7.5806
467	15.3474
468	7.6761
469	11.2754
470	0.7355
471	13.2676
472	21.2160
473	13.3239
474	6.9718
475	13.3803
476	7.1017
477	28.6901
478	4.5352
479	15.7433
480	6.2347
481	14.7966
482	5.1596
483	16.1174
484	6.8811
485	15.1800
486	1.1972
487	16.7668
488	0.0000
489	24.4272
490	4.0986
491	15.1471
492	0.4601
493	19.2285
494	1.5462
495	26.0423
496	5.1189
497	17.6667
498	2.4413
499	12.8091
500	1.5649
501	16.7606
502	0.6432
503	21.7230
504	0.0000
505	21.9515
506	1.5837
507	11.9671
508	14.9499
509	18.1862
510	1.7981
511	14.9953
512	4.0063
513	11.8169
514	0.0000
515	14.0892
516	5.6526
517	12.7089
518	1.6213
519	17.5587
520	0.0000
521	12.7840
522	6.1831
523	11.6401
524	2.6401
525	16.0376
526	1.6463
527	20.4225
528	1.8685
529	15.9014
530	0.0000
531	18.6197
532	0.3349
533	16.0141
534	1.6714
535	16.5587
536	0.1612
537	22.7653
538	0.9484
539	18.5571
540	0.0000
541	15.6995
542	1.8482
543	16.4460
544	0.8920
545	13.6463
546	8.9812
547	12.9844
548	0.2848
549	19.0423
550	0.1393
551	15.9343
552	0.8638
553	17.3083
554	1.3991
555	18.2394
556	0.6495
557	16.8451
558	4.7606
559	17.1221
560	3.5055
561	14.9249
562	2.3615
563	14.9781
564	2.8826
565	15.1471
566	3.5430
567	15.5352
568	0.3333
569	19.6995
570	0.0000
571	20.9781
572	0.2097
573	17.0376
574	2.6948
575	18.2973
576	1.8028
577	18.9624
578	0.0000
579	22.6526
580	0.0923
581	17.4570
582	2.7324
583	15.8607
584	0.2582
585	20.2254
586	0.0000
587	21.4538
588	0.1596
589	17.5133
590	2.7700
591	16.1737
592	0.0000
593	17.9922
594	0.9296
595	23.1737
596	0.0000
597	16.0798
598	1.8717
599	17.0610
600	3.8779
601	17.8701
602	0.9421
603	18.0986
604	2.0548
605	17.0423
606	3.7934
607	16.3490
608	0.1455
609	21.0141
610	0.0000
611	22.1674
612	0.0845
613	18.2269
614	2.8826
615	16.5117
616	0.1080
617	21.2770
618	0.0000
619	22.4053
620	0.0595
621	18.4648
622	2.9202
623	19.6495
624	1.9531
625	17.6495
626	2.9390
627	18.7559
628	0.9828
629	17.7496
630	3.9437
631	15.8623
632	4.9781
633	12.9061
634	2.9765
635	6.9624
636	1.9953
637	14.9593
638	2.9953
639	0.0000
