X	Y
0	0.000
1	34.000
2	0.047
3	28.967
4	0.044
5	32.875
6	20.822
7	31.814
8	2.225
9	25.972
10	15.969
11	31.862
12	5.244
13	39.573
14	22.496
15	28.070
16	24.875
17	31.920
18	13.225
19	36.732
20	2.532
21	38.836
22	0.689
23	41.712
24	18.925
25	45.413
26	18.919
27	42.577
28	19.000
29	39.682
30	5.610
31	26.437
32	20.898
33	33.690
34	2.851
35	24.603
36	17.831
37	34.000
38	16.119
39	29.183
40	18.063
41	36.358
42	23.540
43	27.394
44	16.069
45	40.789
46	19.712
47	29.338
48	19.775
49	29.383
50	17.235
51	27.160
52	20.837
53	30.166
54	15.423
55	32.914
56	21.124
57	33.000
58	15.817
59	27.908
60	15.033
61	35.759
62	17.388
63	30.099
64	24.399
65	40.576
66	31.070
67	32.790
68	14.319
69	33.784
70	24.014
71	42.556
72	19.887
73	40.515
74	19.853
75	41.474
76	18.357
77	38.433
78	18.610
79	33.505
80	15.876
81	31.380
82	20.283
83	39.571
84	30.211
85	42.271
86	20.327
87	37.775
88	22.725
89	39.886
90	17.718
91	42.576
92	10.704
93	45.981
94	21.264
95	38.108
96	19.549
97	39.786
98	19.847
99	38.606
100	18.844
101	38.894
102	20.521
103	45.099
104	24.210
105	45.028
106	26.668
107	44.493
108	19.662
109	40.318
110	24.344
111	40.437
112	28.175
113	40.171
114	20.535
115	41.121
116	17.089
117	46.718
118	18.815
119	40.324
120	22.376
121	49.106
122	25.427
123	41.770
124	22.806
125	39.609
126	20.408
127	42.218
128	30.800
129	46.385
130	25.983
131	38.360
132	30.174
133	55.335
134	26.258
135	51.310
136	33.936
137	50.642
138	34.352
139	48.825
140	32.781
141	48.117
142	30.778
143	51.315
144	40.521
145	50.638
146	44.858
147	53.770
148	43.537
149	59.767
150	43.531
151	57.291
152	47.524
153	65.887
154	49.554
155	61.817
156	54.732
157	64.526
158	52.022
159	70.263
160	59.748
161	72.977
162	60.732
163	66.643
164	58.513
165	60.484
166	48.377
167	69.648
168	53.052
169	70.942
170	69.000
171	84.197
172	74.269
173	88.293
174	74.183
175	85.000
176	73.754
177	94.061
178	87.886
179	86.401
180	83.225
181	101.433
182	85.285
183	97.568
184	89.560
185	95.842
186	91.582
187	103.463
188	93.588
189	110.704
190	97.513
191	114.000
192	98.099
193	113.094
194	104.875
195	115.779
196	113.160
197	119.150
198	113.831
199	119.689
200	110.939
201	122.798
202	111.897
203	126.776
204	113.915
205	123.717
206	113.322
207	128.000
208	121.698
209	132.710
210	117.357
211	122.330
212	116.327
213	133.333
214	124.995
215	137.664
216	128.000
217	134.660
218	122.977
219	134.315
220	124.000
221	133.000
222	124.305
223	138.651
224	129.351
225	137.056
226	124.707
227	134.645
228	123.930
229	133.925
230	126.280
231	133.639
232	129.815
233	136.459
234	121.634
235	134.632
236	125.000
237	132.887
238	125.510
239	136.748
240	122.498
241	136.737
242	123.485
243	134.380
244	117.000
245	129.850
246	118.690
247	131.160
248	122.836
249	128.662
250	117.739
251	128.822
252	111.761
253	129.188
254	115.615
255	124.404
256	113.798
257	122.978
258	113.789
259	121.352
260	114.000
261	124.775
262	115.230
263	117.058
264	106.216
265	90.535
266	73.340
267	112.479
268	110.903
269	112.421
270	110.507
271	118.424
272	105.277
273	118.718
274	104.429
275	116.987
276	105.136
277	112.966
278	107.825
279	112.817
280	105.495
281	112.440
282	102.676
283	109.786
284	103.889
285	106.310
286	99.552
287	112.856
288	106.296
289	108.120
290	103.185
291	108.901
292	107.000
293	109.790
294	100.239
295	107.615
296	94.463
297	106.535
298	96.197
299	105.936
300	91.817
301	103.058
302	92.055
303	103.258
304	89.621
305	105.704
306	93.000
307	102.117
308	89.964
309	98.066
310	90.515
311	96.947
312	88.441
313	99.551
314	85.526
315	96.577
316	87.505
317	97.512
318	81.000
319	92.495
320	86.507
321	90.502
322	89.527
323	88.989
324	89.028
325	91.966
326	82.980
327	92.000
328	82.973
329	90.426
330	75.869
331	92.518
332	82.480
333	87.915
334	71.864
335	86.670
336	72.577
337	83.254
338	64.413
339	81.347
340	72.660
341	88.865
342	73.324
343	71.610
344	59.307
345	69.380
346	59.668
347	68.510
348	57.099
349	70.815
350	62.286
351	73.000
352	62.551
353	73.552
354	64.554
355	72.556
356	63.557
357	74.000
358	63.560
359	73.315
360	58.746
361	72.870
362	63.468
363	73.000
364	65.139
365	69.574
366	55.563
367	68.554
368	62.576
369	67.225
370	56.158
371	69.936
372	59.493
373	66.249
374	61.512
375	66.305
376	56.765
377	65.560
378	50.915
379	63.103
380	54.947
381	58.441
382	55.000
383	65.199
384	48.606
385	65.795
386	54.437
387	59.915
388	42.357
389	61.304
390	51.779
391	58.717
392	41.387
393	64.615
394	42.850
395	58.818
396	56.000
397	56.408
398	43.754
399	57.380
400	45.878
401	53.000
402	43.742
403	46.540
404	44.839
405	56.099
406	44.271
407	53.726
408	40.300
409	54.000
410	42.075
411	60.357
412	44.066
413	55.305
414	43.944
415	56.299
416	43.651
417	54.305
418	36.654
419	47.721
420	39.371
421	53.365
422	36.717
423	47.380
424	44.009
425	47.014
426	43.667
427	54.659
428	44.000
429	46.629
430	31.981
431	49.302
432	36.056
433	53.000
434	35.754
435	44.108
436	28.588
437	48.581
438	37.854
439	47.504
440	30.246
441	46.479
442	30.692
443	44.534
444	39.390
445	49.214
446	30.604
447	45.005
448	33.000
449	46.649
450	31.225
451	44.473
452	31.829
453	45.366
454	31.158
455	46.304
456	28.577
457	49.848
458	27.717
459	44.408
460	22.521
461	45.786
462	31.723
463	39.131
464	28.739
465	45.268
466	32.541
467	45.423
468	30.535
469	42.862
470	29.793
471	40.526
472	27.523
473	42.858
474	32.808
475	45.460
476	28.725
477	41.761
478	31.252
479	43.498
480	28.995
481	34.731
482	30.491
483	33.685
484	22.213
485	35.446
486	20.113
487	33.330
488	28.873
489	44.653
490	28.233
491	38.695
492	29.150
493	33.285
494	22.362
495	32.831
496	17.119
497	36.444
498	21.000
499	32.534
500	27.260
501	35.296
502	21.573
503	33.490
504	21.634
505	30.936
506	20.416
507	33.099
508	25.205
509	31.238
510	32.009
511	41.801
512	20.199
513	32.169
514	16.782
515	35.582
516	17.192
517	35.718
518	27.053
519	34.315
520	18.559
521	30.477
522	19.183
523	30.452
524	20.180
525	34.070
526	18.531
527	34.577
528	17.042
529	33.894
530	18.512
531	34.352
532	19.000
533	35.664
534	19.000
535	33.977
536	18.000
537	31.714
538	15.842
539	27.130
540	16.845
541	33.840
542	18.304
543	34.300
544	14.446
545	36.588
546	19.728
547	33.720
548	16.570
549	31.141
550	18.861
551	33.377
552	14.681
553	36.192
554	18.064
555	28.211
556	20.039
557	35.385
558	16.761
559	36.125
560	17.124
561	21.953
562	17.362
563	30.665
564	21.117
565	30.042
566	20.343
567	30.887
568	16.333
569	34.905
570	18.676
571	29.490
572	20.315
573	29.103
574	21.593
575	29.000
576	21.901
577	25.552
578	22.759
579	28.469
580	20.446
581	21.452
582	18.000
583	18.876
584	23.484
585	13.873
586	20.834
587	32.058
588	18.484
589	25.548
590	24.080
591	34.399
592	16.074
593	30.360
594	0.211
595	20.308
596	20.587
597	16.986
598	19.936
599	20.815
600	18.061
601	30.000
602	22.537
603	29.169
604	24.069
605	29.160
606	2.085
607	17.801
608	22.612
609	30.141
610	23.410
611	25.394
612	4.085
613	34.203
614	15.235
615	27.038
616	22.072
617	20.379
618	2.329
619	32.031
620	17.059
621	26.338
622	1.585
623	22.200
624	17.047
625	32.934
626	0.285
627	17.300
628	0.258
629	36.016
630	0.000
631	19.075
632	24.967
633	15.103
634	15.914
635	35.937
636	0.117
637	12.088
638	5.991
639	0.000
