X	Y
0	0.000
1	8.009
2	0.006
3	14.038
4	7.950
5	4.094
6	0.047
7	16.044
8	0.038
9	3.211
10	0.031
11	0.344
12	2.944
13	5.224
14	1.978
15	0.376
16	3.975
17	0.479
18	4.859
19	4.476
20	11.750
21	2.526
22	1.000
23	16.612
24	3.850
25	3.587
26	0.000
27	0.930
28	1.956
29	2.681
30	3.812
31	0.970
32	0.050
33	7.291
34	0.947
35	1.150
36	17.930
37	3.216
38	0.000
39	2.075
40	7.438
41	1.347
42	0.394
43	0.875
44	3.931
45	1.408
46	1.856
47	1.324
48	1.225
49	20.000
50	15.748
51	20.681
52	16.570
53	11.664
54	20.225
55	3.377
56	3.649
57	1.516
58	1.363
59	1.570
60	1.376
61	1.432
62	1.194
63	16.394
64	4.603
65	14.119
66	7.174
67	18.895
68	12.829
69	22.676
70	20.480
71	3.667
72	10.225
73	2.742
74	2.664
75	5.291
76	18.357
77	3.290
78	16.803
79	2.349
80	6.249
81	2.408
82	21.049
83	20.299
84	10.737
85	25.872
86	19.269
87	5.178
88	2.587
89	22.000
90	17.577
91	6.567
92	19.152
93	19.310
94	14.471
95	4.014
96	14.498
97	20.518
98	18.000
99	16.873
100	22.966
101	21.897
102	16.117
103	25.806
104	11.210
105	24.315
106	16.498
107	20.344
108	18.000
109	22.876
110	18.172
111	19.911
112	23.299
113	28.823
114	19.357
115	20.700
116	22.182
117	28.817
118	21.892
119	29.372
120	30.188
121	30.568
122	20.427
123	35.962
124	30.806
125	39.587
126	29.197
127	31.782
128	31.200
129	33.624
130	30.000
131	36.230
132	31.380
133	32.706
134	30.629
135	35.070
136	47.105
137	33.003
138	35.160
139	43.915
140	42.657
141	44.310
142	42.222
143	54.895
144	53.268
145	58.588
146	49.858
147	58.690
148	53.463
149	57.264
150	52.765
151	57.945
152	54.476
153	64.113
154	63.518
155	61.183
156	66.268
157	65.966
158	61.989
159	70.249
160	73.748
161	77.527
162	71.239
163	61.826
164	61.433
165	65.549
166	64.520
167	66.829
168	65.685
169	72.703
170	84.468
171	84.887
172	85.116
173	85.437
174	86.362
175	87.191
176	86.377
177	92.939
178	90.786
179	92.961
180	90.845
181	95.567
182	90.285
183	95.714
184	89.576
185	92.448
186	93.329
187	103.219
188	90.648
189	102.070
190	94.189
191	99.081
192	99.901
193	96.926
194	101.482
195	102.577
196	109.239
197	106.233
198	105.380
199	108.246
200	106.939
201	109.000
202	108.632
203	107.318
204	108.915
205	111.283
206	106.934
207	113.268
208	110.977
209	112.327
210	105.986
211	107.991
212	104.664
213	111.000
214	113.009
215	115.654
216	110.014
217	109.754
218	107.365
219	105.056
220	104.000
221	107.113
222	106.432
223	115.396
224	110.052
225	109.056
226	104.707
227	110.710
228	108.357
229	109.642
230	105.280
231	109.531
232	103.726
233	109.823
234	104.901
235	108.207
236	102.000
237	107.854
238	104.628
239	103.488
240	105.751
241	99.526
242	102.834
243	100.324
244	100.000
245	101.218
246	97.460
247	101.933
248	98.329
249	102.728
250	92.174
251	96.964
252	93.972
253	101.563
254	94.782
255	94.793
256	89.202
257	94.218
258	89.596
259	94.837
260	91.407
261	98.676
262	94.280
263	92.412
264	83.108
265	69.438
266	55.593
267	85.329
268	90.581
269	92.789
270	87.155
271	90.817
272	86.534
273	85.981
274	82.146
275	87.304
276	80.023
277	80.433
278	83.260
279	85.620
280	82.562
281	81.319
282	81.324
283	87.315
284	81.556
285	80.000
286	82.000
287	87.347
288	80.451
289	84.166
290	80.908
291	82.554
292	79.828
293	77.668
294	80.840
295	82.538
296	79.368
297	77.859
298	76.269
299	80.487
300	78.469
301	76.710
302	72.055
303	82.268
304	77.903
305	74.864
306	73.521
307	75.363
308	75.482
309	78.901
310	70.485
311	75.080
312	72.512
313	71.939
314	70.966
315	74.887
316	68.022
317	73.449
318	71.991
319	71.989
320	74.505
321	68.009
322	73.000
323	69.527
324	64.000
325	67.017
326	66.490
327	68.535
328	62.027
329	70.634
330	64.516
331	67.662
332	63.039
333	69.211
334	58.182
335	65.009
336	53.103
337	60.582
338	54.529
339	59.897
340	56.064
341	62.534
342	65.859
343	50.074
344	46.153
345	46.859
346	41.624
347	51.516
348	36.277
349	49.092
350	46.905
351	57.254
352	46.347
353	56.685
354	51.216
355	51.889
356	56.000
357	53.056
358	48.759
359	51.180
360	47.197
361	51.344
362	54.867
363	48.066
364	45.721
365	48.995
366	43.127
367	55.128
368	46.969
369	50.620
370	41.526
371	50.806
372	42.418
373	50.923
374	49.535
375	44.000
376	44.000
377	47.080
378	42.592
379	52.083
380	43.000
381	42.385
382	42.207
383	52.199
384	34.596
385	46.038
386	44.416
387	47.873
388	37.286
389	41.002
390	40.779
391	43.507
392	34.387
393	52.761
394	29.534
395	46.836
396	32.662
397	37.834
398	30.754
399	43.249
400	32.000
401	39.393
402	30.258
403	40.937
404	28.264
405	37.437
406	30.541
407	36.732
408	32.831
409	39.041
410	31.925
411	37.432
412	32.579
413	38.110
414	30.479
415	38.546
416	33.000
417	39.789
418	32.729
419	37.491
420	30.371
421	37.247
422	31.642
423	37.282
424	33.664
425	36.307
426	30.000
427	38.028
428	24.311
429	37.742
430	26.710
431	40.745
432	29.056
433	27.743
434	31.321
435	37.127
436	25.000
437	25.419
438	30.798
439	33.000
440	27.131
441	38.563
442	17.617
443	39.479
444	25.812
445	39.624
446	27.906
447	33.690
448	19.402
449	36.729
450	21.592
451	29.529
452	28.585
453	32.089
454	31.158
455	39.408
456	28.563
457	28.582
458	30.567
459	28.211
460	26.479
461	31.822
462	19.432
463	27.419
464	18.822
465	37.826
466	25.834
467	29.962
468	20.732
469	27.404
470	27.297
471	28.108
472	19.739
473	30.961
474	22.549
475	28.920
476	18.980
477	28.704
478	18.740
479	28.246
480	20.751
481	26.786
482	17.720
483	30.338
484	23.455
485	24.277
486	7.394
487	29.097
488	17.764
489	29.183
490	19.767
491	25.452
492	17.000
493	29.258
494	19.638
495	27.746
496	19.105
497	29.111
498	18.221
499	29.371
500	19.218
501	28.272
502	20.357
503	16.638
504	10.056
505	25.693
506	20.792
507	30.521
508	14.820
509	22.390
510	17.202
511	27.598
512	22.006
513	31.648
514	7.413
515	34.507
516	17.000
517	14.518
518	16.213
519	18.873
520	0.745
521	21.707
522	18.000
523	30.277
524	19.000
525	17.606
526	3.537
527	30.546
528	13.479
529	19.451
530	22.465
531	9.972
532	18.321
533	30.848
534	18.164
535	17.163
536	2.839
537	20.000
538	19.790
539	13.496
540	6.169
541	16.086
542	3.643
543	16.995
544	16.067
545	14.499
546	1.854
547	13.696
548	0.858
549	19.028
550	0.000
551	20.311
552	2.587
553	17.808
554	19.133
555	19.737
556	0.649
557	16.562
558	1.746
559	29.873
560	2.629
561	17.559
562	1.121
563	16.859
564	4.643
565	14.147
566	1.571
567	22.437
568	0.778
569	19.000
570	3.784
571	14.297
572	6.944
573	18.620
574	0.407
575	16.300
576	8.113
577	16.351
578	0.000
579	22.028
580	0.000
581	19.818
582	2.732
583	21.649
584	0.258
585	18.986
586	1.493
587	20.210
588	1.080
589	17.513
590	0.230
591	21.272
592	0.000
593	18.136
594	1.549
595	19.105
596	2.269
597	16.817
598	19.717
599	19.748
600	0.366
601	19.870
602	1.174
603	17.099
604	8.329
605	14.362
606	17.380
607	16.349
608	2.951
609	18.296
610	0.000
611	19.131
612	0.085
613	21.186
614	4.804
615	19.474
616	0.000
617	20.311
618	2.901
619	20.374
620	0.000
621	20.493
622	1.053
623	17.624
624	0.023
625	19.628
626	0.020
627	31.437
628	4.914
629	14.797
630	3.000
631	19.013
632	1.978
633	17.878
634	2.977
635	18.994
636	3.052
637	0.013
638	3.994
639	0.000
