X	Y
0	13.000
1	38.964
2	12.972
3	32.911
4	3.994
5	25.953
6	0.028
7	29.923
8	0.000
9	31.986
10	0.016
11	29.862
12	0.981
13	33.736
14	15.649
15	28.836
16	5.200
17	27.814
18	3.887
19	26.732
20	3.063
21	26.638
22	6.759
23	33.856
24	3.925
25	26.687
26	18.390
27	29.535
28	20.080
29	38.956
30	11.671
31	27.418
32	1.102
33	35.690
34	0.213
35	34.671
36	12.563
37	28.653
38	4.654
39	32.000
40	8.814
41	34.166
42	1.854
43	30.269
44	5.757
45	36.662
46	26.208
47	24.853
48	0.977
49	36.770
50	0.078
51	34.601
52	18.372
53	31.332
54	1.521
55	29.086
56	20.175
57	32.911
58	5.455
59	34.446
60	12.155
61	30.477
62	0.000
63	31.324
64	3.604
65	30.797
66	17.310
67	27.056
68	24.362
69	34.352
70	20.219
71	22.333
72	26.099
73	23.000
74	23.074
75	30.883
76	2.476
77	32.795
78	18.732
79	39.258
80	20.998
81	34.239
82	15.203
83	34.961
84	21.606
85	30.000
86	17.269
87	39.638
88	24.311
89	26.114
90	15.859
91	30.712
92	23.280
93	26.019
94	8.618
95	32.851
96	7.052
97	34.607
98	21.926
99	31.000
100	20.687
101	40.103
102	15.638
103	37.194
104	21.186
105	44.207
106	23.839
107	42.660
108	21.183
109	31.000
110	23.861
111	38.958
112	19.299
113	42.408
114	16.643
115	41.380
116	19.000
117	42.268
118	21.000
119	39.579
120	24.061
121	44.243
122	16.382
123	46.615
124	28.194
125	43.609
126	31.394
127	42.000
128	24.603
129	41.606
130	28.017
131	53.335
132	28.728
133	49.710
134	32.790
135	51.676
136	31.787
137	55.998
138	27.784
139	57.085
140	29.095
141	57.897
142	44.000
143	62.433
144	44.099
145	62.596
146	45.086
147	63.319
148	49.768
149	64.601
150	55.469
151	67.055
152	47.621
153	72.042
154	56.554
155	70.059
156	64.268
157	71.789
158	62.280
159	78.756
160	61.501
161	80.236
162	70.000
163	72.235
164	55.743
165	73.160
166	61.740
167	77.477
168	63.948
169	90.091
170	82.734
171	91.465
172	78.153
173	89.541
174	82.545
175	95.548
176	82.449
177	98.338
178	92.721
179	99.880
180	95.437
181	98.717
182	93.563
183	103.141
184	87.712
185	98.579
186	90.164
187	112.585
188	101.412
189	111.817
190	100.108
191	116.701
192	111.000
193	116.000
194	106.304
195	113.610
196	110.307
197	118.308
198	112.000
199	121.377
200	114.626
201	122.113
202	116.264
203	122.094
204	112.596
205	118.679
206	113.934
207	127.676
208	117.349
209	129.346
210	118.671
211	124.000
212	111.332
213	124.000
214	117.335
215	135.336
216	122.662
217	124.321
218	118.659
219	132.343
220	118.689
221	130.692
222	121.347
223	132.443
224	117.402
225	133.056
226	118.585
227	127.579
228	114.859
229	124.000
230	117.080
231	130.746
232	123.185
233	127.635
234	120.099
235	119.471
236	118.739
237	120.258
238	119.510
239	124.374
240	115.000
241	122.623
242	115.621
243	119.239
244	112.618
245	120.000
246	111.000
247	124.546
248	111.493
249	118.169
250	114.391
251	115.964
252	110.183
253	119.208
254	109.192
255	113.202
256	106.599
257	114.598
258	106.789
259	109.784
260	105.593
261	116.225
262	107.870
263	115.119
264	100.695
265	87.876
266	69.344
267	111.075
268	107.903
269	109.211
270	98.732
271	114.455
272	98.149
273	108.437
274	98.715
275	110.139
276	95.728
277	106.700
278	98.130
279	102.254
280	95.124
281	107.000
282	95.441
283	102.000
284	92.556
285	104.108
286	93.210
287	102.305
288	93.099
289	101.834
290	93.000
291	99.446
292	94.086
293	102.790
294	91.160
295	95.077
296	92.390
297	101.746
298	90.933
299	100.192
300	82.061
301	97.529
302	87.473
303	96.423
304	89.379
305	100.523
306	85.352
307	97.441
308	85.820
309	96.418
310	86.426
311	95.080
312	82.559
313	92.041
314	84.034
315	93.535
316	83.022
317	93.016
318	82.507
319	89.496
320	80.005
321	86.972
322	84.512
323	87.934
324	74.521
325	91.440
326	78.490
327	84.418
328	73.920
329	84.455
330	74.484
331	89.000
332	72.480
333	85.915
334	66.864
335	80.621
336	64.000
337	81.473
338	64.884
339	78.347
340	76.468
341	88.264
342	73.254
343	61.684
344	59.460
345	60.620
346	56.376
347	63.371
348	55.455
349	64.638
350	54.095
351	70.408
352	57.695
353	70.238
354	57.324
355	78.000
356	62.228
357	71.324
358	56.440
359	73.315
360	53.563
361	67.351
362	59.798
363	69.319
364	54.418
365	67.859
366	55.709
367	66.851
368	55.152
369	67.803
370	55.737
371	67.033
372	54.164
373	66.498
374	55.585
375	67.305
376	53.646
377	60.330
378	40.225
379	62.290
380	47.405
381	57.230
382	44.207
383	59.808
384	41.197
385	60.795
386	39.000
387	60.944
388	43.750
389	64.565
390	43.052
391	57.941
392	45.000
393	54.235
394	46.617
395	55.346
396	44.380
397	52.787
398	41.509
399	56.498
400	42.000
401	54.372
402	33.258
403	53.000
404	39.748
405	57.169
406	38.260
407	53.726
408	34.108
409	44.800
410	37.491
411	56.357
412	40.579
413	48.659
414	35.761
415	49.402
416	36.349
417	48.169
418	32.383
419	44.509
420	31.315
421	54.659
422	37.925
423	54.662
424	33.000
425	47.679
426	29.000
427	48.977
428	29.321
429	44.615
430	32.673
431	46.604
432	30.648
433	45.546
434	31.358
435	44.831
436	33.412
437	53.684
438	40.540
439	47.504
440	29.557
441	47.099
442	30.925
443	46.374
444	30.221
445	48.429
446	31.510
447	43.300
448	29.897
449	49.568
450	22.662
451	41.354
452	31.537
453	44.746
454	32.869
455	45.879
456	32.714
457	38.848
458	31.734
459	48.352
460	28.560
461	39.621
462	26.446
463	45.479
464	30.726
465	41.634
466	32.022
467	33.576
468	30.183
469	32.394
470	30.413
471	34.840
472	31.307
473	33.156
474	31.967
475	34.336
476	31.296
477	32.549
478	28.480
479	35.005
480	22.746
481	43.236
482	24.017
483	37.685
484	19.213
485	36.651
486	17.197
487	33.854
488	18.527
489	43.939
490	17.399
491	34.621
492	18.460
493	36.056
494	17.681
495	34.577
496	15.895
497	36.778
498	18.221
499	38.534
500	18.782
501	37.864
502	18.214
503	35.703
504	18.366
505	31.307
506	20.208
507	32.859
508	18.795
509	33.441
510	19.798
511	32.804
512	21.795
513	32.563
514	18.369
515	34.164
516	19.808
517	30.146
518	19.864
519	32.878
520	19.186
521	32.185
522	17.451
523	31.634
524	14.900
525	36.070
526	18.646
527	33.402
528	19.695
529	32.549
530	20.659
531	27.352
532	19.833
533	27.829
534	21.671
535	31.023
536	16.710
537	34.404
538	18.684
539	30.191
540	15.831
541	21.687
542	17.455
543	32.648
544	17.446
545	31.559
546	19.981
547	20.023
548	18.715
549	33.014
550	16.050
551	31.138
552	16.225
553	37.462
554	15.266
555	31.183
556	5.559
557	28.385
558	20.085
559	30.125
560	19.618
561	18.587
562	5.397
563	18.546
564	14.122
565	35.653
566	0.228
567	20.901
568	18.222
569	20.534
570	16.948
571	34.000
572	13.742
573	33.967
574	15.085
575	18.003
576	17.127
577	36.127
578	0.382
579	29.376
580	18.908
581	21.271
582	16.573
583	18.402
584	22.848
585	18.859
586	18.332
587	18.977
588	19.324
589	19.643
590	0.000
591	33.624
592	15.044
593	22.936
594	0.930
595	28.275
596	20.721
597	26.657
598	21.524
599	24.125
600	15.512
601	18.833
602	27.131
603	25.507
604	4.726
605	21.426
606	0.103
607	16.801
608	2.903
609	18.798
610	18.455
611	21.307
612	15.408
613	22.448
614	0.961
615	18.526
616	16.532
617	22.172
618	18.934
619	21.282
620	15.643
621	25.113
622	0.080
623	18.300
624	1.977
625	21.110
626	0.000
627	29.188
628	3.931
629	19.078
630	0.099
631	17.175
632	3.967
633	19.122
634	17.883
635	20.063
636	3.981
637	18.041
638	1.997
639	0.000
