X	Y
0	4.0000
1	30.9828
2	2.9906
3	30.9484
4	2.9812
5	29.9296
6	3.9624
7	26.9343
8	1.9750
9	29.9014
10	1.0000
11	28.8451
12	0.9812
13	30.7966
14	7.8247
15	28.7887
16	1.0000
17	31.6009
18	0.1690
19	30.5540
20	0.0939
21	28.6385
22	0.9656
23	35.4241
24	3.8498
25	29.6088
26	0.0000
27	33.4085
28	2.8685
29	29.6369
30	0.0469
31	28.6119
32	3.7997
33	31.9484
34	4.7340
35	23.8905
36	1.0000
37	31.3631
38	0.0595
39	30.8779
40	16.4382
41	26.4867
42	0.1972
43	20.7308
44	0.0689
45	24.7887
46	1.8560
47	30.2645
48	0.0000
49	34.0031
50	2.7653
51	27.2817
52	0.0000
53	28.1706
54	0.0845
55	28.3114
56	4.8247
57	30.4836
58	0.2723
59	34.5227
60	0.0000
61	31.7590
62	1.9030
63	24.9014
64	7.9014
65	28.6776
66	3.1033
67	30.9030
68	2.2128
69	29.8122
70	0.0000
71	31.3333
72	0.3380
73	32.2864
74	1.9687
75	29.8263
76	1.8811
77	27.3130
78	0.7324
79	25.7527
80	2.6244
81	31.9718
82	14.3318
83	34.0125
84	13.4225
85	31.1377
86	22.3271
87	31.0939
88	1.7246
89	34.0501
90	0.1408
91	28.1487
92	0.7199
93	26.8357
94	4.2645
95	30.7700
96	2.5493
97	29.0266
98	2.3067
99	30.3662
100	3.2864
101	31.6808
102	2.5211
103	25.0329
104	15.5587
105	30.3709
106	11.0047
107	31.3349
108	3.3239
109	25.1471
110	10.3772
111	31.5681
112	1.0000
113	26.4085
114	1.1784
115	26.9202
116	0.0000
117	33.4648
118	1.6307
119	31.2066
120	2.4413
121	30.2958
122	0.9546
123	32.2300
124	3.2989
125	32.5869
126	0.0000
127	27.0125
128	15.9937
129	26.5869
130	13.5415
131	32.1299
132	1.5869
133	28.3349
134	0.2097
135	32.5775
136	13.5947
137	25.2128
138	1.9437
139	27.1721
140	11.7136
141	31.9108
142	20.1111
143	39.7621
144	17.2676
145	37.3271
146	12.0297
147	39.0188
148	17.3897
149	29.2692
150	10.8873
151	27.6917
152	0.7621
153	41.5634
154	17.0360
155	34.0000
156	12.8498
157	41.8059
158	11.7856
159	39.7606
160	22.9953
161	33.9609
162	18.5211
163	26.1737
164	4.4601
165	27.4507
166	5.1565
167	29.2958
168	21.6854
169	34.5039
170	21.1377
171	42.4507
172	16.3459
173	29.4804
174	15.2817
175	35.9750
176	11.6948
177	39.8451
178	12.2645
179	29.9186
180	19.8732
181	32.7684
182	20.5696
183	32.4272
184	17.1518
185	34.8419
186	18.5822
187	35.9515
188	17.7653
189	35.1127
190	21.8106
191	32.7011
192	15.6009
193	31.3224
194	20.0000
195	30.5587
196	19.1721
197	39.6088
198	11.9718
199	39.2629
200	17.6870
201	35.3944
202	20.5806
203	38.6933
204	18.6385
205	36.2254
206	20.0657
207	35.0563
208	21.3490
209	39.7293
210	18.6995
211	43.7074
212	17.0047
213	39.3333
214	18.3302
215	38.3083
216	19.9859
217	37.9249
218	20.0000
219	37.5446
220	20.0000
221	38.8873
222	20.9577
223	37.5102
224	21.2473
225	38.8310
226	18.2926
227	39.0923
228	18.9296
229	36.4914
230	20.2801
231	40.4930
232	11.5540
233	32.5196
234	19.4648
235	39.2191
236	17.5853
237	30.7746
238	18.1174
239	35.7559
240	20.4977
241	38.6056
242	19.2426
243	38.9577
244	18.0000
245	34.0829
246	17.8451
247	31.8404
248	19.2238
249	32.6620
250	18.2175
251	39.0720
252	8.0563
253	37.6448
254	20.2175
255	32.2019
256	18.0000
257	34.9890
258	19.2113
259	32.3787
260	19.0000
261	36.7324
262	19.9499
263	31.8232
264	16.9343
265	30.7793
266	1.7512
267	30.7465
268	17.6776
269	26.6322
270	19.4648
271	23.7590
272	22.8717
273	37.4460
274	19.0000
275	39.8357
276	17.5681
277	33.5321
278	17.7402
279	25.7606
280	20.0000
281	28.6448
282	6.2347
283	38.1424
284	17.8889
285	34.6338
286	11.0485
287	36.8560
288	13.1831
289	28.8091
290	18.1768
291	31.6338
292	19.5430
293	35.4585
294	22.0188
295	37.8451
296	11.1690
297	31.4930
298	17.6682
299	34.5321
300	18.2864
301	31.1737
302	18.3083
303	29.3709
304	17.9030
305	31.0908
306	22.6056
307	23.6761
308	22.5540
309	28.5164
310	18.4554
311	27.6463
312	17.5117
313	38.1831
314	10.8106
315	35.6479
316	25.4726
317	19.5743
318	19.4930
319	29.4961
320	19.5023
321	24.9906
322	15.4726
323	32.8905
324	10.0845
325	30.3537
326	20.4288
327	24.8592
328	17.8936
329	24.7919
330	20.0986
331	22.3740
332	18.0391
333	22.3944
334	12.1815
335	31.0000
336	9.5869
337	24.9249
338	6.7105
339	28.1643
340	0.0000
341	28.1925
342	9.2958
343	27.4116
344	0.4617
345	27.1408
346	14.7903
347	24.4570
348	12.2958
349	26.5383
350	18.2613
351	24.2535
352	11.9577
353	29.8466
354	22.6761
355	20.8889
356	1.7715
357	32.3239
358	7.1565
359	25.3818
360	17.9296
361	31.0063
362	9.5368
363	33.1362
364	7.4429
365	21.2895
366	1.5728
367	30.0469
368	7.2097
369	29.9296
370	11.2113
371	25.5164
372	7.5211
373	28.7465
374	20.5117
375	32.3944
376	11.0031
377	22.3302
378	3.2676
379	23.8138
380	10.5415
381	31.0939
382	18.3912
383	23.6056
384	9.5775
385	22.3850
386	9.1268
387	25.3380
388	18.2864
389	22.1299
390	12.8826
391	23.3286
392	2.7058
393	29.6150
394	9.2848
395	22.6729
396	2.6620
397	24.3020
398	7.9202
399	22.6338
400	11.1064
401	21.8216
402	13.9531
403	31.8294
404	11.2645
405	22.3662
406	9.0219
407	22.2676
408	7.1455
409	24.0798
410	0.3584
411	20.2817
412	21.9343
413	23.5978
414	6.9859
415	24.6088
416	0.0000
417	24.5164
418	6.8795
419	32.3114
420	7.8826
421	33.2707
422	17.3208
423	23.0563
424	1.9906
425	25.7027
426	6.3333
427	24.9765
428	5.6228
429	22.9577
430	7.1956
431	21.5336
432	8.5634
433	21.8685
434	2.0376
435	29.9155
436	13.9640
437	32.0000
438	13.1690
439	23.9468
440	0.0000
441	25.8592
442	7.2410
443	19.7480
444	8.9671
445	19.6792
446	7.2285
447	23.2019
448	11.1142
449	25.6761
450	21.5211
451	26.0595
452	18.1471
453	23.9108
454	5.7903
455	31.8326
456	2.0047
457	20.4178
458	23.7340
459	17.9437
460	6.3224
461	23.5070
462	6.6479
463	23.0297
464	17.3693
465	24.7230
466	5.4147
467	19.2300
468	8.8169
469	19.9264
470	12.6197
471	27.2629
472	9.0908
473	18.7152
474	4.4507
475	21.8232
476	0.7449
477	23.0282
478	1.7637
479	24.7543
480	0.0000
481	31.2473
482	15.0861
483	21.1502
484	1.5149
485	22.4100
486	1.0000
487	31.3349
488	1.1815
489	24.2254
490	2.7981
491	21.3161
492	14.4695
493	25.5696
494	4.8576
495	19.7324
496	5.7903
497	19.4444
498	6.2066
499	21.9718
500	4.8279
501	25.0798
502	18.0000
503	22.3412
504	1.2113
505	22.6291
506	3.1221
507	25.5117
508	3.2801
509	23.6448
510	18.7887
511	30.3975
512	20.3975
513	22.7746
514	0.1956
515	23.5227
516	14.5352
517	21.2911
518	2.4319
519	21.6291
520	1.6761
521	21.9233
522	0.0000
523	21.4491
524	0.8200
525	20.5681
526	1.1768
527	22.1033
528	0.8263
529	21.0657
530	7.4648
531	16.8873
532	12.8279
533	26.4977
534	15.0423
535	22.4413
536	2.7731
537	24.7559
538	0.6322
539	16.9734
540	8.2394
541	19.6870
542	2.5446
543	20.1549
544	4.8920
545	18.0595
546	1.7277
547	17.7355
548	3.0000
549	18.6901
550	4.9499
551	20.7903
552	0.8638
553	20.1534
554	2.7293
555	23.7887
556	1.7402
557	19.9249
558	2.1268
559	23.2520
560	2.9671
561	19.5869
562	19.7105
563	17.4977
564	1.5258
565	27.1158
566	12.2003
567	32.6620
568	0.0000
569	22.6573
570	19.0563
571	16.9155
572	1.7903
573	18.3427
574	3.2034
575	18.3020
576	3.7042
577	28.4554
578	0.0000
579	21.9390
580	18.4304
581	16.4523
582	3.1784
583	18.1393
584	7.3114
585	20.7606
586	0.3318
587	21.4883
588	2.9202
589	17.2520
590	1.3067
591	17.1268
592	4.0297
593	18.7277
594	0.0000
595	22.3443
596	4.6635
597	18.4601
598	2.1283
599	23.3130
600	9.5728
601	24.5352
602	3.7684
603	13.2394
604	1.1095
605	18.9577
606	4.5681
607	21.5008
608	2.9515
609	23.1408
610	14.5008
611	21.3944
612	2.0845
613	16.5696
614	0.2739
615	16.6385
616	4.8200
617	19.3787
618	0.9671
619	17.4069
620	23.2864
621	22.2254
622	0.0798
623	20.3005
624	1.0235
625	17.3505
626	1.9593
627	21.2629
628	0.0000
629	15.2504
630	0.0563
631	22.0876
632	0.0219
633	21.0845
634	0.0156
635	21.0563
636	1.0047
637	23.0188
638	0.0047
639	0.0000
